wavelength,reflectance
1300.0,0.6388
1302.0,0.6391
1304.0,0.63735
1306.0,0.6354
1308.0,0.6359
1310.0,0.636
1312.0,0.6358
1314.0,0.6322
1316.0,0.6271
1318.0,0.6232
1320.0,0.6193
1322.0,0.6157
1324.0,0.6138
1326.0,0.6115999999999999
1328.0,0.608
1330.0,0.602
1332.0,0.5948
1334.0,0.5882999999999999
1336.0,0.5844
1338.0,0.5836
1340.0,0.5843
1342.0,0.5856
1344.0,0.5865
1346.0,0.5861
1348.0,0.5855
1350.0,0.58455
1352.0,0.5837
1354.0,0.5837
1356.0,0.5844
1358.0,0.5865
1360.0,0.5901
1362.0,0.59355
1364.0,0.5968
1366.0,0.5988
1368.0,0.5989
1370.0,0.5976
1372.0,0.5953
1374.0,0.5929
1376.0,0.5909
1378.0,0.5897
1380.0,0.5889
1382.0,0.5877
1384.0,0.5859000000000001
1386.0,0.5831000000000001
1388.0,0.5794
1390.0,0.5751
1392.0,0.5704
1394.0,0.5650999999999999
1396.0,0.55905
1398.0,0.5524
1400.0,0.5449
1402.0,0.5366
1404.0,0.5278
1406.0,0.519
1408.0,0.50985
1410.0,0.5004
1412.0,0.4901
1414.0,0.4775
1416.0,0.4604
1418.0,0.4366
1420.0,0.4054
1422.0,0.3693
1424.0,0.3347
1426.0,0.30805
1428.0,0.29359999999999997
1430.0,0.2918
1432.0,0.2999
1434.0,0.3147
1436.0,0.33340000000000003
1438.0,0.3531
1440.0,0.371
1442.0,0.38420000000000004
1444.0,0.39159999999999995
1446.0,0.3934
1448.0,0.39130000000000004
1450.0,0.3865
1452.0,0.3799
1454.0,0.37200000000000005
1456.0,0.3635
1458.0,0.35475
1460.0,0.34700000000000003
1462.0,0.34090000000000004
1464.0,0.3371
1466.0,0.33490000000000003
1468.0,0.3332
1470.0,0.33015
1472.0,0.3236
1474.0,0.31129999999999997
1476.0,0.2924
1478.0,0.2685
1480.0,0.2434
1482.0,0.2245
1484.0,0.2195
1486.0,0.2323
1488.0,0.25920000000000004
1490.0,0.2929
1492.0,0.3256
1494.0,0.35200000000000004
1496.0,0.3709
1498.0,0.3832
1500.0,0.39085000000000003
1502.0,0.39630000000000004
1504.0,0.4012
1506.0,0.40700000000000003
1508.0,0.4143
1510.0,0.4227
1512.0,0.4324
1514.0,0.4416
1516.0,0.4501
1518.0,0.45740000000000003
1520.0,0.4632
1522.0,0.4679
1524.0,0.47200000000000003
1526.0,0.47479999999999994
1528.0,0.47700000000000004
1530.0,0.47859999999999997
1532.0,0.47950000000000004
1534.0,0.4802
1536.0,0.48100000000000004
1538.0,0.4819
1540.0,0.48340000000000005
1542.0,0.4852
1544.0,0.4865
1546.0,0.48719999999999997
1548.0,0.4875
1550.0,0.4879
1552.0,0.4882
1554.0,0.48869999999999997
1556.0,0.4885
1558.0,0.4885
1560.0,0.48869999999999997
1562.0,0.48840000000000006
1564.0,0.48840000000000006
1566.0,0.48829999999999996
1568.0,0.4878
1570.0,0.4875
1572.0,0.4869
1574.0,0.486
1576.0,0.48560000000000003
1578.0,0.4854
1580.0,0.4849
1582.0,0.4843
1584.0,0.4838
1586.0,0.4832
1588.0,0.4826
1590.0,0.48229999999999995
1592.0,0.48219999999999996
1594.0,0.48229999999999995
1596.0,0.48229999999999995
1598.0,0.48200000000000004
1600.0,0.4815
1602.0,0.48100000000000004
1604.0,0.4804
1606.0,0.48
1608.0,0.4799
1610.0,0.4803
1612.0,0.4805
1614.0,0.4803
1616.0,0.47979999999999995
1618.0,0.4793
1620.0,0.4789
1622.0,0.47859999999999997
1624.0,0.47840000000000005
1626.0,0.4781
1628.0,0.4775
1630.0,0.47700000000000004
1632.0,0.47609999999999997
1634.0,0.4752
1636.0,0.4746
1638.0,0.4742
1640.0,0.4736
1642.0,0.4728
1644.0,0.4715
1646.0,0.4703
1648.0,0.4693
1650.0,0.4685
1652.0,0.4678
1654.0,0.4671
1656.0,0.46590000000000004
1658.0,0.4646
1660.0,0.4631
1662.0,0.4618
1664.0,0.4604
1666.0,0.4587
1668.0,0.4572
1670.0,0.4558
1672.0,0.4543
1674.0,0.45280000000000004
1676.0,0.4511
1678.0,0.44939999999999997
1680.0,0.44780000000000003
1682.0,0.4465
1684.0,0.44520000000000004
1686.0,0.44409999999999994
1688.0,0.4429
1690.0,0.4415
1692.0,0.44
1694.0,0.4386
1696.0,0.4374
1698.0,0.4362
1700.0,0.4349
1702.0,0.4337
1704.0,0.4325
1706.0,0.4313
1708.0,0.4301
1710.0,0.4286
1712.0,0.4265
1714.0,0.4244
1716.0,0.42229999999999995
1718.0,0.42
1720.0,0.4174
1722.0,0.4146
1724.0,0.41100000000000003
1726.0,0.4065
1728.0,0.40159999999999996
1730.0,0.39630000000000004
1732.0,0.391
1734.0,0.38539999999999996
1736.0,0.37929999999999997
1738.0,0.3736
1740.0,0.368
1742.0,0.36219999999999997
1744.0,0.3558
1746.0,0.3489
1748.0,0.3422
1750.0,0.33535
1752.0,0.3292
1754.0,0.3239
1756.0,0.3194
1758.0,0.31579999999999997
1760.0,0.3122
1762.0,0.30870000000000003
1764.0,0.3053
1766.0,0.30210000000000004
1768.0,0.29969999999999997
1770.0,0.2983
1772.0,0.2992
1774.0,0.3024
1776.0,0.3073
1778.0,0.3129
1780.0,0.3186
1782.0,0.3247
1784.0,0.33195
1786.0,0.3406
1788.0,0.3508
1790.0,0.3619
1792.0,0.3734
1794.0,0.38420000000000004
1796.0,0.3931
1798.0,0.3998
1800.0,0.4045
1802.0,0.4078
1804.0,0.4103
1806.0,0.4121
1808.0,0.4133
1810.0,0.4142
1812.0,0.41490000000000005
1814.0,0.4155
1816.0,0.41619999999999996
1818.0,0.41600000000000004
1820.0,0.4157
1822.0,0.4152
1824.0,0.4147
1826.0,0.41409999999999997
1828.0,0.4132
1830.0,0.41240000000000004
1832.0,0.4117
1834.0,0.41090000000000004
1836.0,0.41009999999999996
1838.0,0.409
1840.0,0.408
1842.0,0.4071
1844.0,0.406
1846.0,0.405
1848.0,0.4039
1850.0,0.4029
1852.0,0.40145000000000003
1854.0,0.40020000000000006
1856.0,0.39875
1858.0,0.3972
1860.0,0.39549999999999996
1862.0,0.39380000000000004
1864.0,0.3921
1866.0,0.39020000000000005
1868.0,0.38799999999999996
1870.0,0.38565
1872.0,0.3834
1874.0,0.38060000000000005
1876.0,0.37770000000000004
1878.0,0.37450000000000006
1880.0,0.3713
1882.0,0.36840000000000006
1884.0,0.3651
1886.0,0.36174999999999996
1888.0,0.3586
1890.0,0.3556
1892.0,0.3525
1894.0,0.34950000000000003
1896.0,0.3461
1898.0,0.34240000000000004
1900.0,0.33880000000000005
1902.0,0.33509999999999995
1904.0,0.3318
1906.0,0.3283
1908.0,0.3246
1910.0,0.3208
1912.0,0.3171
1914.0,0.3134
1916.0,0.3103
1918.0,0.308
1920.0,0.3059
1922.0,0.3034
1924.0,0.30105
1926.0,0.2992
1928.0,0.2974
1930.0,0.29600000000000004
1932.0,0.2945
1934.0,0.29309999999999997
1936.0,0.2921
1938.0,0.29135
1940.0,0.2907
1942.0,0.29
1944.0,0.289
1946.0,0.2877
1948.0,0.2866
1950.0,0.2854
1952.0,0.284
1954.0,0.2824
1956.0,0.2807
1958.0,0.27915
1960.0,0.278
1962.0,0.2766
1964.0,0.27555
1966.0,0.2749
1968.0,0.27449999999999997
1970.0,0.27449999999999997
1972.0,0.2749
1974.0,0.2755
1976.0,0.276
1978.0,0.27645
1980.0,0.27690000000000003
1982.0,0.2772
1984.0,0.27699999999999997
1986.0,0.2761
1988.0,0.2754
1990.0,0.2741
1992.0,0.2721
1994.0,0.2693
1996.0,0.26649999999999996
1998.0,0.2637
2000.0,0.2606
2002.0,0.2575
2004.0,0.2548
2006.0,0.2525
2008.0,0.2503
2010.0,0.2484
2012.0,0.24670000000000003
2014.0,0.24609999999999999
2016.0,0.2462
2018.0,0.24670000000000003
2020.0,0.24710000000000001
2022.0,0.2473
2024.0,0.2473
2026.0,0.24719999999999998
2028.0,0.24670000000000003
2030.0,0.24600000000000002
2032.0,0.2445
2034.0,0.2432
2036.0,0.2418
2038.0,0.24059999999999998
2040.0,0.23989999999999997
2042.0,0.2386
2044.0,0.2372
2046.0,0.23559999999999998
2048.0,0.23399999999999999
2050.0,0.23260000000000003
2052.0,0.23120000000000002
2054.0,0.2297
2056.0,0.2286
2058.0,0.22769999999999999
2060.0,0.2271
2062.0,0.2266
2064.0,0.2262
2066.0,0.2263
2068.0,0.2266
2070.0,0.2273
2072.0,0.2275
2074.0,0.2274
2076.0,0.22699999999999998
2078.0,0.22649999999999998
2080.0,0.226
2082.0,0.22519999999999998
2084.0,0.2242
2086.0,0.2228
2088.0,0.221
2090.0,0.2184
2092.0,0.2158
2094.0,0.21350000000000002
2096.0,0.21109999999999998
2098.0,0.2082
2100.0,0.205
2102.0,0.2011
2104.0,0.1967
2106.0,0.19190000000000002
2108.0,0.18705
2110.0,0.1825
2112.0,0.1775
2114.0,0.172
2116.0,0.1664
2118.0,0.1604
2120.0,0.1548
2122.0,0.1499
2124.0,0.1452
2126.0,0.1412
2128.0,0.138
2130.0,0.1351
2132.0,0.13269999999999998
2134.0,0.13019999999999998
2136.0,0.128
2138.0,0.1258
2140.0,0.1235
2142.0,0.1211
2144.0,0.11939999999999999
2146.0,0.11800000000000001
2148.0,0.11630000000000001
2150.0,0.114
2152.0,0.111
2154.0,0.10859999999999999
2156.0,0.1065
2158.0,0.1048
2160.0,0.1039
2162.0,0.1036
2164.0,0.1041
2166.0,0.1043
2168.0,0.1036
2170.0,0.1032
2172.0,0.10300000000000001
2174.0,0.10400000000000001
2176.0,0.10529999999999999
2178.0,0.10640000000000001
2180.0,0.1065
2182.0,0.1057
2184.0,0.10490000000000001
2186.0,0.10550000000000001
2188.0,0.10830000000000001
2190.0,0.1124
2192.0,0.1167
2194.0,0.1206
2196.0,0.12545
2198.0,0.1324
2200.0,0.1398
2202.0,0.1452
2204.0,0.1454
2206.0,0.1405
2208.0,0.1329
2210.0,0.12619999999999998
2212.0,0.1234
2214.0,0.1259
2216.0,0.13369999999999999
2218.0,0.1454
2220.0,0.1595
2222.0,0.175
2224.0,0.19190000000000002
2226.0,0.2073
2228.0,0.21989999999999998
2230.0,0.2289
2232.0,0.235
2234.0,0.24
2236.0,0.2444
2238.0,0.248
2240.0,0.2509
2242.0,0.2532
2244.0,0.2546
2246.0,0.2554
2248.0,0.256
2250.0,0.2563
2252.0,0.2568
2254.0,0.25670000000000004
2256.0,0.2563
2258.0,0.2559
2260.0,0.2552
2262.0,0.2545
2264.0,0.254
2266.0,0.2539
2268.0,0.2539
2270.0,0.253
2272.0,0.2523
2274.0,0.2514
2276.0,0.2502
2278.0,0.2486
2280.0,0.24739999999999998
2282.0,0.2459
2284.0,0.24420000000000003
2286.0,0.2419
2288.0,0.23920000000000002
2290.0,0.23620000000000002
2292.0,0.233
2294.0,0.2289
2296.0,0.2238
2298.0,0.21760000000000002
2300.0,0.2101
2302.0,0.20149999999999998
2304.0,0.19210000000000002
2306.0,0.18175
2308.0,0.17190000000000003
2310.0,0.1637
2312.0,0.15810000000000002
2314.0,0.15380000000000002
2316.0,0.1505
2318.0,0.149
2320.0,0.1503
2322.0,0.1532
2324.0,0.1566
2326.0,0.1604
2328.0,0.1648
2330.0,0.1699
2332.0,0.17489999999999997
2334.0,0.1805
2336.0,0.1856
2338.0,0.19
2340.0,0.1945
2342.0,0.19829999999999998
2344.0,0.20079999999999998
2346.0,0.2025
2348.0,0.204
2350.0,0.2053
2352.0,0.2051
2354.0,0.20465
2356.0,0.20465
2358.0,0.204
2360.0,0.2029
2362.0,0.20149999999999998
2364.0,0.2
2366.0,0.198
2368.0,0.1948
2370.0,0.19055
2372.0,0.18600000000000003
2374.0,0.18109999999999998
2376.0,0.1766
2378.0,0.17059999999999997
2380.0,0.16399999999999998
2382.0,0.1573
2384.0,0.1507
2386.0,0.14395
2388.0,0.13775
2390.0,0.1318
2392.0,0.1263
2394.0,0.122
2396.0,0.11939999999999999
2398.0,0.1173
2400.0,0.1153
2402.0,0.114
2404.0,0.1131
2406.0,0.1118
2408.0,0.1106
2410.0,0.10980000000000001
2412.0,0.10800000000000001
2414.0,0.106
2416.0,0.1036
2418.0,0.10099999999999999
2420.0,0.09759999999999999
2422.0,0.09449999999999999
2424.0,0.0925
2426.0,0.09
2428.0,0.08735
2430.0,0.08529999999999999
2432.0,0.08425
2434.0,0.0842
2436.0,0.08439999999999999
2438.0,0.08560000000000001
2440.0,0.0877
2442.0,0.0897
2444.0,0.0907
2446.0,0.0913
2448.0,0.0922
2450.0,0.0915
2452.0,0.0908
2454.0,0.0895
2456.0,0.08779999999999999
2458.0,0.08529999999999999
2460.0,0.08259999999999999
2462.0,0.07985
2464.0,0.07855000000000001
2466.0,0.07780000000000001
2468.0,0.0784
2470.0,0.0806
2472.0,0.0839
2474.0,0.086
2476.0,0.0873
2478.0,0.0883
2480.0,0.08779999999999999
2482.0,0.0863
2484.0,0.0839
2486.0,0.0814
2488.0,0.0782
2490.0,0.075
2492.0,0.0729
2494.0,0.0702
2496.0,0.06665
2498.0,0.0636
2500.0,0.0617
