wavelength,reflectance
1300.0,0.43670000000000003
1302.0,0.4371
1304.0,0.4375
1306.0,0.4375
1308.0,0.43810000000000004
1310.0,0.43829999999999997
1312.0,0.439
1314.0,0.4395
1316.0,0.4399
1318.0,0.43979999999999997
1320.0,0.4396
1322.0,0.4393
1324.0,0.439
1326.0,0.4386
1328.0,0.4385
1330.0,0.4382
1332.0,0.4379
1334.0,0.4375
1336.0,0.43670000000000003
1338.0,0.4362
1340.0,0.436
1342.0,0.436
1344.0,0.4359
1346.0,0.4351
1348.0,0.4335
1350.0,0.43090000000000006
1352.0,0.4277
1354.0,0.4243
1356.0,0.42119999999999996
1358.0,0.4189
1360.0,0.4179
1362.0,0.4181
1364.0,0.419
1366.0,0.4199
1368.0,0.42
1370.0,0.419
1372.0,0.4165
1374.0,0.41259999999999997
1376.0,0.4071
1378.0,0.40090000000000003
1380.0,0.395
1382.0,0.3898
1384.0,0.38549999999999995
1386.0,0.3814
1388.0,0.3765
1390.0,0.3705
1392.0,0.36479999999999996
1394.0,0.3607
1396.0,0.3591
1398.0,0.35960000000000003
1400.0,0.36119999999999997
1402.0,0.363
1404.0,0.3644
1406.0,0.36479999999999996
1408.0,0.36229999999999996
1410.0,0.35600000000000004
1412.0,0.3477
1414.0,0.3425
1416.0,0.3443
1418.0,0.35350000000000004
1420.0,0.3643
1422.0,0.37200000000000005
1424.0,0.3741
1426.0,0.3732
1428.0,0.3734
1430.0,0.37579999999999997
1432.0,0.38060000000000005
1434.0,0.38689999999999997
1436.0,0.3934
1438.0,0.3996
1440.0,0.4046
1442.0,0.4081
1444.0,0.41
1446.0,0.4106
1448.0,0.4104
1450.0,0.4093
1452.0,0.4078
1454.0,0.40590000000000004
1456.0,0.4039
1458.0,0.4023
1460.0,0.40130000000000005
1462.0,0.4007
1464.0,0.4003
1466.0,0.3993
1468.0,0.3971
1470.0,0.3925
1472.0,0.385
1474.0,0.375
1476.0,0.36460000000000004
1478.0,0.3576
1480.0,0.3563
1482.0,0.36090000000000005
1484.0,0.37
1486.0,0.38020000000000004
1488.0,0.3896
1490.0,0.39659999999999995
1492.0,0.4018
1494.0,0.40549999999999997
1496.0,0.40840000000000004
1498.0,0.4114
1500.0,0.4143
1502.0,0.4172
1504.0,0.4202
1506.0,0.4228
1508.0,0.4251
1510.0,0.42729999999999996
1512.0,0.4291
1514.0,0.43090000000000006
1516.0,0.4322
1518.0,0.4334
1520.0,0.43450000000000005
1522.0,0.4354
1524.0,0.4362
1526.0,0.43689999999999996
1528.0,0.43729999999999997
1530.0,0.4376
1532.0,0.4378
1534.0,0.4379
1536.0,0.43810000000000004
1538.0,0.4384
1540.0,0.4389
1542.0,0.4393
1544.0,0.4395
1546.0,0.4397
1548.0,0.4399
1550.0,0.4401
1552.0,0.4403
1554.0,0.4404
1556.0,0.4404
1558.0,0.4404
1560.0,0.4404
1562.0,0.4404
1564.0,0.4403
1566.0,0.44049999999999995
1568.0,0.44079999999999997
1570.0,0.44079999999999997
1572.0,0.4407
1574.0,0.44060000000000005
1576.0,0.4404
1578.0,0.4404
1580.0,0.4404
1582.0,0.44049999999999995
1584.0,0.4404
1586.0,0.44049999999999995
1588.0,0.44060000000000005
1590.0,0.4407
1592.0,0.4409
1594.0,0.441
1596.0,0.441
1598.0,0.4412
1600.0,0.4414
1602.0,0.4415
1604.0,0.4415
1606.0,0.4414
1608.0,0.4412
1610.0,0.4412
1612.0,0.4414
1614.0,0.4415
1616.0,0.44179999999999997
1618.0,0.442
1620.0,0.442
1622.0,0.44229999999999997
1624.0,0.44229999999999997
1626.0,0.4422
1628.0,0.4424
1630.0,0.4424
1632.0,0.4425
1634.0,0.4425
1636.0,0.4424
1638.0,0.44229999999999997
1640.0,0.44229999999999997
1642.0,0.44229999999999997
1644.0,0.44229999999999997
1646.0,0.44229999999999997
1648.0,0.4421
1650.0,0.44189999999999996
1652.0,0.44170000000000004
1654.0,0.4412
1656.0,0.4407
1658.0,0.44060000000000005
1660.0,0.44060000000000005
1662.0,0.4404
1664.0,0.4401
1666.0,0.4396
1668.0,0.4393
1670.0,0.4389
1672.0,0.4385
1674.0,0.43810000000000004
1676.0,0.4376
1678.0,0.43729999999999997
1680.0,0.4368
1682.0,0.43670000000000003
1684.0,0.43670000000000003
1686.0,0.4365
1688.0,0.4363
1690.0,0.4361
1692.0,0.4357
1694.0,0.43560000000000004
1696.0,0.4354
1698.0,0.4353
1700.0,0.435
1702.0,0.4346
1704.0,0.4341
1706.0,0.4335
1708.0,0.4328
1710.0,0.43229999999999996
1712.0,0.43170000000000003
1714.0,0.43090000000000006
1716.0,0.4299
1718.0,0.42869999999999997
1720.0,0.42729999999999996
1722.0,0.426
1724.0,0.4244
1726.0,0.4228
1728.0,0.4208
1730.0,0.41869999999999996
1732.0,0.4165
1734.0,0.4146
1736.0,0.4125
1738.0,0.4105
1740.0,0.40840000000000004
1742.0,0.4061
1744.0,0.40380000000000005
1746.0,0.40159999999999996
1748.0,0.39909999999999995
1750.0,0.3971
1752.0,0.3953
1754.0,0.3937
1756.0,0.3926
1758.0,0.39159999999999995
1760.0,0.39049999999999996
1762.0,0.389
1764.0,0.38799999999999996
1766.0,0.3874
1768.0,0.3872
1770.0,0.38789999999999997
1772.0,0.3892
1774.0,0.3908
1776.0,0.39299999999999996
1778.0,0.3948
1780.0,0.39659999999999995
1782.0,0.39890000000000003
1784.0,0.4014
1786.0,0.4043
1788.0,0.40740000000000004
1790.0,0.4105
1792.0,0.4138
1794.0,0.41659999999999997
1796.0,0.419
1798.0,0.4208
1800.0,0.42219999999999996
1802.0,0.4232
1804.0,0.4241
1806.0,0.42460000000000003
1808.0,0.4249
1810.0,0.4251
1812.0,0.4251
1814.0,0.42479999999999996
1816.0,0.42460000000000003
1818.0,0.4244
1820.0,0.4243
1822.0,0.4242
1824.0,0.4241
1826.0,0.4243
1828.0,0.4244
1830.0,0.42460000000000003
1832.0,0.4249
1834.0,0.42460000000000003
1836.0,0.4244
1838.0,0.4242
1840.0,0.42369999999999997
1842.0,0.4233
1844.0,0.4229
1846.0,0.4229
1848.0,0.4235
1850.0,0.4241
1852.0,0.42479999999999996
1854.0,0.4251
1856.0,0.4249
1858.0,0.4244
1860.0,0.424
1862.0,0.4236
1864.0,0.423
1866.0,0.42219999999999996
1868.0,0.4213
1870.0,0.4202
1872.0,0.4192
1874.0,0.418
1876.0,0.4168
1878.0,0.4155
1880.0,0.4139
1882.0,0.41229999999999994
1884.0,0.4108
1886.0,0.4093
1888.0,0.4077
1890.0,0.40590000000000004
1892.0,0.4039
1894.0,0.402
1896.0,0.3998
1898.0,0.3978
1900.0,0.3957
1902.0,0.39409999999999995
1904.0,0.3926
1906.0,0.39159999999999995
1908.0,0.3907
1910.0,0.3899
1912.0,0.38939999999999997
1914.0,0.3889
1916.0,0.3886
1918.0,0.3883
1920.0,0.3882
1922.0,0.3881
1924.0,0.38799999999999996
1926.0,0.38780000000000003
1928.0,0.3876
1930.0,0.3875
1932.0,0.3875
1934.0,0.3875
1936.0,0.3875
1938.0,0.3875
1940.0,0.3873
1942.0,0.387
1944.0,0.3865
1946.0,0.3862
1948.0,0.3856
1950.0,0.3851
1952.0,0.3847
1954.0,0.38420000000000004
1956.0,0.3837
1958.0,0.3831
1960.0,0.3826
1962.0,0.3823
1964.0,0.3823
1966.0,0.3823
1968.0,0.38280000000000003
1970.0,0.3831
1972.0,0.3834
1974.0,0.3835
1976.0,0.3834
1978.0,0.3835
1980.0,0.3833
1982.0,0.38280000000000003
1984.0,0.382
1986.0,0.381
1988.0,0.37979999999999997
1990.0,0.37829999999999997
1992.0,0.3766
1994.0,0.375
1996.0,0.3732
1998.0,0.3716
2000.0,0.36979999999999996
2002.0,0.368
2004.0,0.3664
2006.0,0.3652
2008.0,0.3643
2010.0,0.36369999999999997
2012.0,0.3628
2014.0,0.3625
2016.0,0.3625
2018.0,0.3625
2020.0,0.3625
2022.0,0.3625
2024.0,0.36210000000000003
2026.0,0.3614
2028.0,0.3607
2030.0,0.35979999999999995
2032.0,0.3588
2034.0,0.3574
2036.0,0.3563
2038.0,0.35509999999999997
2040.0,0.3542
2042.0,0.3532
2044.0,0.3522
2046.0,0.35119999999999996
2048.0,0.35
2050.0,0.3488
2052.0,0.3475
2054.0,0.3461
2056.0,0.3452
2058.0,0.3443
2060.0,0.3439
2062.0,0.3431
2064.0,0.3418
2066.0,0.3411
2068.0,0.3404
2070.0,0.3397
2072.0,0.33880000000000005
2074.0,0.33799999999999997
2076.0,0.3375
2078.0,0.3368
2080.0,0.3362
2082.0,0.33520000000000005
2084.0,0.33390000000000003
2086.0,0.33270000000000005
2088.0,0.331
2090.0,0.3296
2092.0,0.3281
2094.0,0.32689999999999997
2096.0,0.32549999999999996
2098.0,0.324
2100.0,0.3222
2102.0,0.3204
2104.0,0.3181
2106.0,0.3151
2108.0,0.3118
2110.0,0.30820000000000003
2112.0,0.3049
2114.0,0.3015
2116.0,0.2985
2118.0,0.29510000000000003
2120.0,0.2915
2122.0,0.2879
2124.0,0.2843
2126.0,0.2807
2128.0,0.2773
2130.0,0.2742
2132.0,0.27149999999999996
2134.0,0.2688
2136.0,0.266
2138.0,0.2631
2140.0,0.2597
2142.0,0.2563
2144.0,0.2529
2146.0,0.24960000000000002
2148.0,0.2457
2150.0,0.2416
2152.0,0.2379
2154.0,0.2346
2156.0,0.23190000000000002
2158.0,0.23010000000000003
2160.0,0.22920000000000001
2162.0,0.22870000000000001
2164.0,0.22829999999999998
2166.0,0.22769999999999999
2168.0,0.2273
2170.0,0.22719999999999999
2172.0,0.2279
2174.0,0.2284
2176.0,0.22829999999999998
2178.0,0.22769999999999999
2180.0,0.22690000000000002
2182.0,0.2271
2184.0,0.22829999999999998
2186.0,0.23010000000000003
2188.0,0.23170000000000002
2190.0,0.2329
2192.0,0.2346
2194.0,0.2371
2196.0,0.2398
2198.0,0.24100000000000002
2200.0,0.2395
2202.0,0.23440000000000003
2204.0,0.2263
2206.0,0.21789999999999998
2208.0,0.21239999999999998
2210.0,0.2122
2212.0,0.21850000000000003
2214.0,0.22870000000000001
2216.0,0.2398
2218.0,0.2509
2220.0,0.26039999999999996
2222.0,0.2687
2224.0,0.2762
2226.0,0.2818
2228.0,0.2861
2230.0,0.2894
2232.0,0.2921
2234.0,0.294
2236.0,0.2954
2238.0,0.29600000000000004
2240.0,0.2967
2242.0,0.2966
2244.0,0.2965
2246.0,0.2965
2248.0,0.2965
2250.0,0.2963
2252.0,0.2957
2254.0,0.29510000000000003
2256.0,0.2945
2258.0,0.2939
2260.0,0.29350000000000004
2262.0,0.293
2264.0,0.2926
2266.0,0.2922
2268.0,0.2919
2270.0,0.2913
2272.0,0.2907
2274.0,0.2897
2276.0,0.2884
2278.0,0.2872
2280.0,0.2861
2282.0,0.2852
2284.0,0.2839
2286.0,0.28300000000000003
2288.0,0.2815
2290.0,0.2802
2292.0,0.2788
2294.0,0.2772
2296.0,0.2759
2298.0,0.2743
2300.0,0.2727
2302.0,0.2703
2304.0,0.2673
2306.0,0.2639
2308.0,0.2601
2310.0,0.256
2312.0,0.2525
2314.0,0.2495
2316.0,0.24719999999999998
2318.0,0.2457
2320.0,0.245
2322.0,0.2451
2324.0,0.2464
2326.0,0.2484
2328.0,0.2507
2330.0,0.2528
2332.0,0.2552
2334.0,0.2576
2336.0,0.2596
2338.0,0.2606
2340.0,0.2615
2342.0,0.2623
2344.0,0.2623
2346.0,0.2615
2348.0,0.2601
2350.0,0.25920000000000004
2352.0,0.2586
2354.0,0.2581
2356.0,0.2579
2358.0,0.2575
2360.0,0.2572
2362.0,0.2568
2364.0,0.2564
2366.0,0.2551
2368.0,0.2532
2370.0,0.2506
2372.0,0.24670000000000003
2374.0,0.24309999999999998
2376.0,0.2398
2378.0,0.2365
2380.0,0.233
2382.0,0.2293
2384.0,0.226
2386.0,0.2232
2388.0,0.2213
2390.0,0.2193
2392.0,0.2184
2394.0,0.21850000000000003
2396.0,0.2187
2398.0,0.2188
2400.0,0.2188
2402.0,0.2192
2404.0,0.2193
2406.0,0.2188
2408.0,0.2182
2410.0,0.2177
2412.0,0.2167
2414.0,0.21539999999999998
2416.0,0.2139
2418.0,0.21170000000000003
2420.0,0.20920000000000002
2422.0,0.2071
2424.0,0.2046
2426.0,0.2018
2428.0,0.1985
2430.0,0.1961
2432.0,0.1946
2434.0,0.1934
2436.0,0.1928
2438.0,0.19219999999999998
2440.0,0.19260000000000002
2442.0,0.1929
2444.0,0.1929
2446.0,0.1931
2448.0,0.1937
2450.0,0.1943
2452.0,0.1943
2454.0,0.1936
2456.0,0.1923
2458.0,0.19140000000000001
2460.0,0.19030000000000002
2462.0,0.1886
2464.0,0.1868
2466.0,0.1848
2468.0,0.1837
2470.0,0.1837
2472.0,0.18420000000000003
2474.0,0.1843
2476.0,0.1856
2478.0,0.1869
2480.0,0.1873
2482.0,0.1868
2484.0,0.1856
2486.0,0.184
2488.0,0.18170000000000003
2490.0,0.18
2492.0,0.1784
2494.0,0.1764
2496.0,0.1741
2498.0,0.1724
2500.0,0.1707
