wavelength,reflectance
1300.0,0.45640000000000003
1302.0,0.45640000000000003
1304.0,0.4569
1306.0,0.4573
1308.0,0.45799999999999996
1310.0,0.4586
1312.0,0.45890000000000003
1314.0,0.45899999999999996
1316.0,0.4595
1318.0,0.46020000000000005
1320.0,0.4607
1322.0,0.46090000000000003
1324.0,0.4612
1326.0,0.4612
1328.0,0.46159999999999995
1330.0,0.4621
1332.0,0.4621
1334.0,0.46240000000000003
1336.0,0.46270000000000006
1338.0,0.4628
1340.0,0.46299999999999997
1342.0,0.4629
1344.0,0.46240000000000003
1346.0,0.46149999999999997
1348.0,0.4603
1350.0,0.45890000000000003
1352.0,0.45740000000000003
1354.0,0.4559
1356.0,0.45439999999999997
1358.0,0.45299999999999996
1360.0,0.45159999999999995
1362.0,0.45049999999999996
1364.0,0.44909999999999994
1366.0,0.4475
1368.0,0.4454
1370.0,0.4429
1372.0,0.4395
1374.0,0.4351
1376.0,0.4293
1378.0,0.4225
1380.0,0.4152
1382.0,0.4082
1384.0,0.4018
1386.0,0.39640000000000003
1388.0,0.392
1390.0,0.3881
1392.0,0.3843
1394.0,0.3801
1396.0,0.37560000000000004
1398.0,0.37
1400.0,0.3643
1402.0,0.35810000000000003
1404.0,0.3513
1406.0,0.3439
1408.0,0.33640000000000003
1410.0,0.3295
1412.0,0.325
1414.0,0.3247
1416.0,0.3297
1418.0,0.3389
1420.0,0.34990000000000004
1422.0,0.3605
1424.0,0.3704
1426.0,0.3787
1428.0,0.3864
1430.0,0.3934
1432.0,0.3996
1434.0,0.4045
1436.0,0.40869999999999995
1438.0,0.4121
1440.0,0.4147
1442.0,0.4171
1444.0,0.4191
1446.0,0.4207
1448.0,0.42200000000000004
1450.0,0.4228
1452.0,0.4232
1454.0,0.4232
1456.0,0.4235
1458.0,0.42369999999999997
1460.0,0.4241
1462.0,0.4243
1464.0,0.4243
1466.0,0.4244
1468.0,0.42460000000000003
1470.0,0.4251
1472.0,0.4257
1474.0,0.4267
1476.0,0.42729999999999996
1478.0,0.42810000000000004
1480.0,0.42869999999999997
1482.0,0.4293
1484.0,0.4302
1486.0,0.43119999999999997
1488.0,0.43189999999999995
1490.0,0.4325
1492.0,0.4329
1494.0,0.4334
1496.0,0.434
1498.0,0.43450000000000005
1500.0,0.4353
1502.0,0.4357
1504.0,0.4361
1506.0,0.43670000000000003
1508.0,0.43689999999999996
1510.0,0.4371
1512.0,0.4375
1514.0,0.4376
1516.0,0.43829999999999997
1518.0,0.43920000000000003
1520.0,0.4399
1522.0,0.4403
1524.0,0.4403
1526.0,0.4404
1528.0,0.44079999999999997
1530.0,0.4413
1532.0,0.4414
1534.0,0.4415
1536.0,0.44170000000000004
1538.0,0.4421
1540.0,0.4425
1542.0,0.44310000000000005
1544.0,0.44310000000000005
1546.0,0.4434
1548.0,0.44380000000000003
1550.0,0.44420000000000004
1552.0,0.44439999999999996
1554.0,0.4448
1556.0,0.44520000000000004
1558.0,0.4457
1560.0,0.44630000000000003
1562.0,0.44659999999999994
1564.0,0.44689999999999996
1566.0,0.4471
1568.0,0.4473
1570.0,0.4475
1572.0,0.44780000000000003
1574.0,0.4483
1576.0,0.4486
1578.0,0.4487
1580.0,0.44909999999999994
1582.0,0.44939999999999997
1584.0,0.4497
1586.0,0.4498
1588.0,0.4499
1590.0,0.45020000000000004
1592.0,0.4506
1594.0,0.4512
1596.0,0.4517
1598.0,0.4517
1600.0,0.4517
1602.0,0.4514
1604.0,0.4514
1606.0,0.45189999999999997
1608.0,0.4523
1610.0,0.4526
1612.0,0.45270000000000005
1614.0,0.45280000000000004
1616.0,0.4531
1618.0,0.4532
1620.0,0.4533
1622.0,0.4534
1624.0,0.4539
1626.0,0.45399999999999996
1628.0,0.4542
1630.0,0.4545
1632.0,0.4547
1634.0,0.455
1636.0,0.4551
1638.0,0.4551
1640.0,0.45520000000000005
1642.0,0.45530000000000004
1644.0,0.45539999999999997
1646.0,0.4556
1648.0,0.45549999999999996
1650.0,0.45549999999999996
1652.0,0.45549999999999996
1654.0,0.45530000000000004
1656.0,0.45530000000000004
1658.0,0.45520000000000005
1660.0,0.4548
1662.0,0.4545
1664.0,0.4542
1666.0,0.4543
1668.0,0.45439999999999997
1670.0,0.45439999999999997
1672.0,0.45409999999999995
1674.0,0.4533
1676.0,0.45299999999999996
1678.0,0.4532
1680.0,0.4536
1682.0,0.4536
1684.0,0.4532
1686.0,0.45299999999999996
1688.0,0.4531
1690.0,0.4534
1692.0,0.4539
1694.0,0.4542
1696.0,0.4547
1698.0,0.4549
1700.0,0.4547
1702.0,0.45439999999999997
1704.0,0.4543
1706.0,0.4542
1708.0,0.45409999999999995
1710.0,0.4539
1712.0,0.4534
1714.0,0.4532
1716.0,0.45280000000000004
1718.0,0.4526
1720.0,0.4524
1722.0,0.4525
1724.0,0.4526
1726.0,0.45270000000000005
1728.0,0.4525
1730.0,0.4523
1732.0,0.45189999999999997
1734.0,0.4522
1736.0,0.4524
1738.0,0.4526
1740.0,0.4523
1742.0,0.452
1744.0,0.4517
1746.0,0.4517
1748.0,0.452
1750.0,0.4518
1752.0,0.4515
1754.0,0.4509
1756.0,0.45030000000000003
1758.0,0.45
1760.0,0.4497
1762.0,0.4497
1764.0,0.4499
1766.0,0.4495
1768.0,0.44920000000000004
1770.0,0.4486
1772.0,0.44799999999999995
1774.0,0.44789999999999996
1776.0,0.4476
1778.0,0.447
1780.0,0.4465
1782.0,0.4458
1784.0,0.44549999999999995
1786.0,0.4454
1788.0,0.44530000000000003
1790.0,0.4451
1792.0,0.44439999999999996
1794.0,0.4437
1796.0,0.44310000000000005
1798.0,0.4432
1800.0,0.4435
1802.0,0.4434
1804.0,0.4432
1806.0,0.44299999999999995
1808.0,0.44299999999999995
1810.0,0.44310000000000005
1812.0,0.4429
1814.0,0.4428
1816.0,0.4425
1818.0,0.44189999999999996
1820.0,0.4415
1822.0,0.4413
1824.0,0.4412
1826.0,0.441
1828.0,0.44060000000000005
1830.0,0.4404
1832.0,0.4404
1834.0,0.43979999999999997
1836.0,0.4391
1838.0,0.43829999999999997
1840.0,0.4375
1842.0,0.43670000000000003
1844.0,0.43579999999999997
1846.0,0.4353
1848.0,0.43520000000000003
1850.0,0.43520000000000003
1852.0,0.4353
1854.0,0.4353
1856.0,0.435
1858.0,0.4343
1860.0,0.43310000000000004
1862.0,0.43170000000000003
1864.0,0.43060000000000004
1866.0,0.4292
1868.0,0.4274
1870.0,0.4249
1872.0,0.4216
1874.0,0.4179
1876.0,0.4143
1878.0,0.4103
1880.0,0.40590000000000004
1882.0,0.4014
1884.0,0.3962
1886.0,0.3907
1888.0,0.3849
1890.0,0.3784
1892.0,0.3712
1894.0,0.36369999999999997
1896.0,0.3556
1898.0,0.3482
1900.0,0.34090000000000004
1902.0,0.3345
1904.0,0.32899999999999996
1906.0,0.3247
1908.0,0.3218
1910.0,0.3206
1912.0,0.32030000000000003
1914.0,0.3209
1916.0,0.3222
1918.0,0.32420000000000004
1920.0,0.3262
1922.0,0.3281
1924.0,0.33
1926.0,0.33159999999999995
1928.0,0.3332
1930.0,0.3346
1932.0,0.33549999999999996
1934.0,0.33640000000000003
1936.0,0.3371
1938.0,0.33770000000000006
1940.0,0.3382
1942.0,0.3389
1944.0,0.3397
1946.0,0.3406
1948.0,0.34130000000000005
1950.0,0.3418
1952.0,0.3425
1954.0,0.34340000000000004
1956.0,0.3447
1958.0,0.345
1960.0,0.3452
1962.0,0.3453
1964.0,0.34590000000000004
1966.0,0.34700000000000003
1968.0,0.34759999999999996
1970.0,0.3482
1972.0,0.349
1974.0,0.34950000000000003
1976.0,0.3503
1978.0,0.3508
1980.0,0.35159999999999997
1982.0,0.3522
1984.0,0.3527
1986.0,0.3533
1988.0,0.3538
1990.0,0.3544
1992.0,0.3552
1994.0,0.35609999999999997
1996.0,0.3568
1998.0,0.35710000000000003
2000.0,0.3576
2002.0,0.3583
2004.0,0.35969999999999996
2006.0,0.3604
2008.0,0.36090000000000005
2010.0,0.3616
2012.0,0.36229999999999996
2014.0,0.363
2016.0,0.36340000000000006
2018.0,0.3643
2020.0,0.365
2022.0,0.36590000000000006
2024.0,0.3666
2026.0,0.3668
2028.0,0.3675
2030.0,0.3682
2032.0,0.3689
2034.0,0.3693
2036.0,0.36950000000000005
2038.0,0.37
2040.0,0.3704
2042.0,0.37070000000000003
2044.0,0.3711
2046.0,0.3713
2048.0,0.3714
2050.0,0.3713
2052.0,0.3713
2054.0,0.3716
2056.0,0.3718
2058.0,0.3718
2060.0,0.3714
2062.0,0.3711
2064.0,0.3709
2066.0,0.37070000000000003
2068.0,0.3703
2070.0,0.3704
2072.0,0.3705
2074.0,0.37020000000000003
2076.0,0.37
2078.0,0.3691
2080.0,0.36840000000000006
2082.0,0.3679
2084.0,0.3671
2086.0,0.3668
2088.0,0.36590000000000006
2090.0,0.3655
2092.0,0.365
2094.0,0.3641
2096.0,0.36229999999999996
2098.0,0.36090000000000005
2100.0,0.3602
2102.0,0.35960000000000003
2104.0,0.358
2106.0,0.35590000000000005
2108.0,0.3547
2110.0,0.35409999999999997
2112.0,0.3538
2114.0,0.35200000000000004
2116.0,0.3504
2118.0,0.34979999999999994
2120.0,0.35009999999999997
2122.0,0.3504
2124.0,0.34979999999999994
2126.0,0.3492
2128.0,0.3483
2130.0,0.3481
2132.0,0.3472
2134.0,0.3458
2136.0,0.3447
2138.0,0.34369999999999995
2140.0,0.3422
2142.0,0.34
2144.0,0.3373
2146.0,0.3346
2148.0,0.3312
2150.0,0.32770000000000005
2152.0,0.32380000000000003
2154.0,0.3204
2156.0,0.3182
2158.0,0.3161
2160.0,0.3148
2162.0,0.31329999999999997
2164.0,0.3116
2166.0,0.31
2168.0,0.3084
2170.0,0.3073
2172.0,0.3068
2174.0,0.3055
2176.0,0.3037
2178.0,0.3014
2180.0,0.2982
2182.0,0.29460000000000003
2184.0,0.2903
2186.0,0.2857
2188.0,0.2812
2190.0,0.2759
2192.0,0.2713
2194.0,0.266
2196.0,0.2606
2198.0,0.2554
2200.0,0.25
2202.0,0.2443
2204.0,0.23850000000000002
2206.0,0.2339
2208.0,0.23260000000000003
2210.0,0.23329999999999998
2212.0,0.2365
2214.0,0.2415
2216.0,0.247
2218.0,0.2523
2220.0,0.25670000000000004
2222.0,0.2619
2224.0,0.2672
2226.0,0.2725
2228.0,0.2772
2230.0,0.2814
2232.0,0.2841
2234.0,0.28600000000000003
2236.0,0.2879
2238.0,0.2904
2240.0,0.292
2242.0,0.29309999999999997
2244.0,0.2948
2246.0,0.2963
2248.0,0.29760000000000003
2250.0,0.2985
2252.0,0.29969999999999997
2254.0,0.3015
2256.0,0.3028
2258.0,0.3043
2260.0,0.3057
2262.0,0.3073
2264.0,0.30820000000000003
2266.0,0.30879999999999996
2268.0,0.3095
2270.0,0.3098
2272.0,0.31
2274.0,0.31
2276.0,0.3104
2278.0,0.3103
2280.0,0.3089
2282.0,0.3078
2284.0,0.3068
2286.0,0.3063
2288.0,0.30519999999999997
2290.0,0.3036
2292.0,0.30260000000000004
2294.0,0.3017
2296.0,0.3012
2298.0,0.2992
2300.0,0.29600000000000004
2302.0,0.29309999999999997
2304.0,0.2909
2306.0,0.2893
2308.0,0.28809999999999997
2310.0,0.2868
2312.0,0.285
2314.0,0.2827
2316.0,0.2802
2318.0,0.2781
2320.0,0.2764
2322.0,0.2753
2324.0,0.2737
2326.0,0.27140000000000003
2328.0,0.26890000000000003
2330.0,0.26739999999999997
2332.0,0.26489999999999997
2334.0,0.2633
2336.0,0.2614
2338.0,0.25920000000000004
2340.0,0.2559
2342.0,0.2534
2344.0,0.2515
2346.0,0.2506
2348.0,0.2494
2350.0,0.2489
2352.0,0.2482
2354.0,0.2481
2356.0,0.2487
2358.0,0.2498
2360.0,0.25079999999999997
2362.0,0.25170000000000003
2364.0,0.2515
2366.0,0.25120000000000003
2368.0,0.2514
2370.0,0.252
2372.0,0.2515
2374.0,0.2509
2376.0,0.24989999999999998
2378.0,0.2487
2380.0,0.24780000000000002
2382.0,0.2473
2384.0,0.2473
2386.0,0.2469
2388.0,0.24739999999999998
2390.0,0.2482
2392.0,0.2489
2394.0,0.249
2396.0,0.24850000000000003
2398.0,0.2489
2400.0,0.249
2402.0,0.2489
2404.0,0.24780000000000002
2406.0,0.2466
2408.0,0.24600000000000002
2410.0,0.2457
2412.0,0.24489999999999998
2414.0,0.2439
2416.0,0.2437
2418.0,0.24239999999999998
2420.0,0.2409
2422.0,0.2394
2424.0,0.2394
2426.0,0.23879999999999998
2428.0,0.2373
2430.0,0.2343
2432.0,0.2324
2434.0,0.23129999999999998
2436.0,0.2299
2438.0,0.2291
2440.0,0.2293
2442.0,0.2293
2444.0,0.2274
2446.0,0.22690000000000002
2448.0,0.2266
2450.0,0.2275
2452.0,0.22690000000000002
2454.0,0.22719999999999999
2456.0,0.22640000000000002
2458.0,0.2261
2460.0,0.22649999999999998
2462.0,0.2271
2464.0,0.22690000000000002
2466.0,0.2261
2468.0,0.22579999999999997
2470.0,0.2263
2472.0,0.22719999999999999
2474.0,0.22820000000000001
2476.0,0.2273
2478.0,0.22640000000000002
2480.0,0.2261
2482.0,0.2266
2484.0,0.2268
2486.0,0.2257
2488.0,0.2241
2490.0,0.22390000000000002
2492.0,0.22579999999999997
2494.0,0.2253
2496.0,0.22440000000000002
2498.0,0.22390000000000002
2500.0,0.22469999999999998
