wavelength,reflectance
1300.0,0.7143
1302.0,0.7127
1304.0,0.7117
1306.0,0.7106
1308.0,0.7097
1310.0,0.7088
1312.0,0.7082999999999999
1314.0,0.7079000000000001
1316.0,0.7076
1318.0,0.7068000000000001
1320.0,0.70595
1322.0,0.7048000000000001
1324.0,0.7038
1326.0,0.7031999999999999
1328.0,0.7029000000000001
1330.0,0.7023999999999999
1332.0,0.7018000000000001
1334.0,0.7012999999999999
1336.0,0.7004
1338.0,0.6995
1340.0,0.6983
1342.0,0.6965
1344.0,0.6940000000000001
1346.0,0.6909000000000001
1348.0,0.6878
1350.0,0.6849
1352.0,0.6827
1354.0,0.6811
1356.0,0.68
1358.0,0.6792
1360.0,0.6786
1362.0,0.6778
1364.0,0.6765000000000001
1366.0,0.6747
1368.0,0.6718500000000001
1370.0,0.6676000000000001
1372.0,0.6626000000000001
1374.0,0.6562
1376.0,0.6486
1378.0,0.6401
1380.0,0.6307
1382.0,0.6214
1384.0,0.6123
1386.0,0.6037
1388.0,0.5963
1390.0,0.5902000000000001
1392.0,0.5861
1394.0,0.5843
1396.0,0.5844
1398.0,0.5854
1400.0,0.5867
1402.0,0.5875
1404.0,0.5875
1406.0,0.5858
1408.0,0.5802
1410.0,0.5707
1412.0,0.5602
1414.0,0.55475
1416.0,0.5595
1418.0,0.5745
1420.0,0.5937
1422.0,0.6109
1424.0,0.6225
1426.0,0.629
1428.0,0.6332
1430.0,0.6365
1432.0,0.63915
1434.0,0.6417
1436.0,0.6442
1438.0,0.6461
1440.0,0.6475
1442.0,0.6487999999999999
1444.0,0.6501
1446.0,0.6512
1448.0,0.6523
1450.0,0.6534
1452.0,0.6541
1454.0,0.6546
1456.0,0.6551
1458.0,0.6552
1460.0,0.6553
1462.0,0.6553
1464.0,0.6556000000000001
1466.0,0.6559999999999999
1468.0,0.6567000000000001
1470.0,0.6574
1472.0,0.6581
1474.0,0.6592
1476.0,0.6602
1478.0,0.6613
1480.0,0.6626000000000001
1482.0,0.6637000000000001
1484.0,0.6646
1486.0,0.6657
1488.0,0.6668000000000001
1490.0,0.6681
1492.0,0.6692
1494.0,0.6698999999999999
1496.0,0.6703
1498.0,0.6707500000000001
1500.0,0.6714
1502.0,0.6720999999999999
1504.0,0.6727
1506.0,0.67365
1508.0,0.6743000000000001
1510.0,0.6748999999999999
1512.0,0.6755
1514.0,0.6761
1516.0,0.6769
1518.0,0.6776000000000001
1520.0,0.6777
1522.0,0.6779000000000001
1524.0,0.6781999999999999
1526.0,0.6788
1528.0,0.6794
1530.0,0.6796
1532.0,0.68
1534.0,0.68045
1536.0,0.6808
1538.0,0.6812999999999999
1540.0,0.6815000000000001
1542.0,0.68155
1544.0,0.6819
1546.0,0.682
1548.0,0.6820999999999999
1550.0,0.6822
1552.0,0.6822
1554.0,0.6820999999999999
1556.0,0.682
1558.0,0.6822499999999999
1560.0,0.6831
1562.0,0.6831
1564.0,0.6831999999999999
1566.0,0.6835
1568.0,0.6835
1570.0,0.6838
1572.0,0.6843
1574.0,0.6844
1576.0,0.6845
1578.0,0.6846
1580.0,0.6843
1582.0,0.68405
1584.0,0.68405
1586.0,0.68405
1588.0,0.6845
1590.0,0.6847
1592.0,0.6846
1594.0,0.6847
1596.0,0.6849
1598.0,0.6851
1600.0,0.685
1602.0,0.6854
1604.0,0.6853
1606.0,0.6851999999999999
1608.0,0.6851
1610.0,0.6849
1612.0,0.6847
1614.0,0.6848000000000001
1616.0,0.6847
1618.0,0.6847
1620.0,0.6847
1622.0,0.6846
1624.0,0.6844
1626.0,0.684
1628.0,0.684
1630.0,0.6838
1632.0,0.6836
1634.0,0.6835
1636.0,0.6833
1638.0,0.6833499999999999
1640.0,0.6835
1642.0,0.6835
1644.0,0.6833
1646.0,0.6831
1648.0,0.6829000000000001
1650.0,0.6833
1652.0,0.6833
1654.0,0.6833
1656.0,0.6831999999999999
1658.0,0.6831
1660.0,0.6831
1662.0,0.6828
1664.0,0.6823999999999999
1666.0,0.6823999999999999
1668.0,0.6823999999999999
1670.0,0.6822
1672.0,0.6818000000000001
1674.0,0.68155
1676.0,0.6809999999999999
1678.0,0.6808
1680.0,0.6807
1682.0,0.6803
1684.0,0.67975
1686.0,0.6795
1688.0,0.6790999999999999
1690.0,0.679
1692.0,0.679
1694.0,0.6789000000000001
1696.0,0.6788
1698.0,0.6784
1700.0,0.6781
1702.0,0.6781
1704.0,0.6781
1706.0,0.6779000000000001
1708.0,0.6774
1710.0,0.6768000000000001
1712.0,0.6761499999999999
1714.0,0.6759999999999999
1716.0,0.6757
1718.0,0.6754000000000001
1720.0,0.6751
1722.0,0.6748999999999999
1724.0,0.6745
1726.0,0.674
1728.0,0.6736
1730.0,0.6736
1732.0,0.6735
1734.0,0.6733
1736.0,0.6731
1738.0,0.67255
1740.0,0.6724
1742.0,0.6720999999999999
1744.0,0.6717
1746.0,0.6712
1748.0,0.6707500000000001
1750.0,0.6700499999999999
1752.0,0.67
1754.0,0.6696
1756.0,0.6690999999999999
1758.0,0.6689
1760.0,0.66825
1762.0,0.6679
1764.0,0.6675
1766.0,0.6670999999999999
1768.0,0.6663
1770.0,0.6655
1772.0,0.6646
1774.0,0.6644
1776.0,0.6642
1778.0,0.6636
1780.0,0.6628499999999999
1782.0,0.662
1784.0,0.6614
1786.0,0.6612
1788.0,0.6606000000000001
1790.0,0.6602
1792.0,0.6597
1794.0,0.6594
1796.0,0.6587999999999999
1798.0,0.6585
1800.0,0.6581999999999999
1802.0,0.6583
1804.0,0.6581
1806.0,0.6575
1808.0,0.65675
1810.0,0.6559999999999999
1812.0,0.6552
1814.0,0.6547
1816.0,0.6542
1818.0,0.6542
1820.0,0.6547
1822.0,0.6547
1824.0,0.6547
1826.0,0.6548999999999999
1828.0,0.6553
1830.0,0.6557
1832.0,0.6551
1834.0,0.65425
1836.0,0.6531
1838.0,0.6522
1840.0,0.6512
1842.0,0.6509
1844.0,0.6509
1846.0,0.6511
1848.0,0.6507999999999999
1850.0,0.6504000000000001
1852.0,0.6498999999999999
1854.0,0.6492
1856.0,0.6479
1858.0,0.6463
1860.0,0.6443000000000001
1862.0,0.642
1864.0,0.6396000000000001
1866.0,0.6366499999999999
1868.0,0.6335000000000001
1870.0,0.6293
1872.0,0.6244
1874.0,0.6189
1876.0,0.6127
1878.0,0.6065
1880.0,0.6001
1882.0,0.59355
1884.0,0.5863499999999999
1886.0,0.5786
1888.0,0.5696
1890.0,0.5598
1892.0,0.5489
1894.0,0.5377000000000001
1896.0,0.5263
1898.0,0.5154
1900.0,0.5052
1902.0,0.4962
1904.0,0.48869999999999997
1906.0,0.483
1908.0,0.47909999999999997
1910.0,0.47700000000000004
1912.0,0.4768
1914.0,0.47759999999999997
1916.0,0.47979999999999995
1918.0,0.4828
1920.0,0.4864
1922.0,0.48969999999999997
1924.0,0.4932
1926.0,0.4965
1928.0,0.4993
1930.0,0.5017
1932.0,0.504
1934.0,0.506
1936.0,0.508
1938.0,0.5097999999999999
1940.0,0.5113
1942.0,0.5129
1944.0,0.5145000000000001
1946.0,0.51595
1948.0,0.5173
1950.0,0.5184000000000001
1952.0,0.5192
1954.0,0.5207
1956.0,0.52205
1958.0,0.523
1960.0,0.5238499999999999
1962.0,0.5249
1964.0,0.5265
1966.0,0.528
1968.0,0.52925
1970.0,0.5305
1972.0,0.5317000000000001
1974.0,0.5333
1976.0,0.5349
1978.0,0.5364
1980.0,0.5375
1982.0,0.5388000000000001
1984.0,0.5402
1986.0,0.5421
1988.0,0.5442
1990.0,0.5457500000000001
1992.0,0.5473
1994.0,0.5484
1996.0,0.5497
1998.0,0.5513
2000.0,0.5527000000000001
2002.0,0.5538000000000001
2004.0,0.5550999999999999
2006.0,0.5564
2008.0,0.5579
2010.0,0.5596
2012.0,0.561
2014.0,0.5619
2016.0,0.56265
2018.0,0.564
2020.0,0.5657
2022.0,0.5669
2024.0,0.5676
2026.0,0.5681
2028.0,0.5689
2030.0,0.5699000000000001
2032.0,0.5709000000000001
2034.0,0.5713
2036.0,0.5717
2038.0,0.5722999999999999
2040.0,0.5728
2042.0,0.5732
2044.0,0.5737
2046.0,0.574
2048.0,0.5743
2050.0,0.5745
2052.0,0.5747
2054.0,0.5748
2056.0,0.5746
2058.0,0.5747
2060.0,0.5744
2062.0,0.5736
2064.0,0.5728
2066.0,0.5722999999999999
2068.0,0.5720000000000001
2070.0,0.5715
2072.0,0.5711999999999999
2074.0,0.5710000000000001
2076.0,0.57055
2078.0,0.57
2080.0,0.5692
2082.0,0.5686
2084.0,0.5678
2086.0,0.5674
2088.0,0.5671
2090.0,0.5667
2092.0,0.56625
2094.0,0.5658
2096.0,0.56515
2098.0,0.5646
2100.0,0.564
2102.0,0.5632
2104.0,0.5622
2106.0,0.5605
2108.0,0.5589
2110.0,0.5569
2112.0,0.5554
2114.0,0.5547
2116.0,0.5547
2118.0,0.5542
2120.0,0.5532
2122.0,0.5524
2124.0,0.5513
2126.0,0.5506
2128.0,0.5495
2130.0,0.5483
2132.0,0.5467
2134.0,0.5446
2136.0,0.54145
2138.0,0.5385
2140.0,0.5347999999999999
2142.0,0.5299499999999999
2144.0,0.5241
2146.0,0.5168
2148.0,0.5086999999999999
2150.0,0.5006
2152.0,0.4929
2154.0,0.4858
2156.0,0.4794
2158.0,0.4736
2160.0,0.46880000000000005
2162.0,0.4656
2164.0,0.46399999999999997
2166.0,0.46340000000000003
2168.0,0.46380000000000005
2170.0,0.4647
2172.0,0.46590000000000004
2174.0,0.4667
2176.0,0.4677
2178.0,0.4689
2180.0,0.4696
2182.0,0.46909999999999996
2184.0,0.4669
2186.0,0.4635
2188.0,0.45909999999999995
2190.0,0.45439999999999997
2192.0,0.4493
2194.0,0.4445
2196.0,0.4401
2198.0,0.4349
2200.0,0.4277
2202.0,0.4169
2204.0,0.4029
2206.0,0.38939999999999997
2208.0,0.38280000000000003
2210.0,0.3892
2212.0,0.4078
2214.0,0.4305
2216.0,0.45189999999999997
2218.0,0.4671
2220.0,0.4775
2222.0,0.485
2224.0,0.4905
2226.0,0.49450000000000005
2228.0,0.49700000000000005
2230.0,0.49810000000000004
2232.0,0.4982
2234.0,0.498
2236.0,0.4976
2238.0,0.49729999999999996
2240.0,0.49700000000000005
2242.0,0.4971
2244.0,0.4972
2246.0,0.49770000000000003
2248.0,0.4975
2250.0,0.49670000000000003
2252.0,0.4961
2254.0,0.4959
2256.0,0.49560000000000004
2258.0,0.4954
2260.0,0.49479999999999996
2262.0,0.4941
2264.0,0.4929
2266.0,0.4917
2268.0,0.4903
2270.0,0.48829999999999996
2272.0,0.4863
2274.0,0.4842
2276.0,0.4825
2278.0,0.4807
2280.0,0.47909999999999997
2282.0,0.4779
2284.0,0.4764
2286.0,0.47479999999999994
2288.0,0.4731
2290.0,0.47159999999999996
2292.0,0.47
2294.0,0.4679
2296.0,0.46590000000000004
2298.0,0.46380000000000005
2300.0,0.4617
2302.0,0.45890000000000003
2304.0,0.45649999999999996
2306.0,0.45399999999999996
2308.0,0.4517
2310.0,0.4498
2312.0,0.44799999999999995
2314.0,0.44670000000000004
2316.0,0.4451
2318.0,0.4436
2320.0,0.4425
2322.0,0.4414
2324.0,0.44060000000000005
2326.0,0.4397
2328.0,0.4391
2330.0,0.4389
2332.0,0.4391
2334.0,0.43939999999999996
2336.0,0.43920000000000003
2338.0,0.4384
2340.0,0.4368
2342.0,0.4347
2344.0,0.4324
2346.0,0.4301
2348.0,0.4276
2350.0,0.4252
2352.0,0.4228
2354.0,0.42119999999999996
2356.0,0.41960000000000003
2358.0,0.4181
2360.0,0.41759999999999997
2362.0,0.4175
2364.0,0.41700000000000004
2366.0,0.4163
2368.0,0.4156
2370.0,0.414
2372.0,0.41159999999999997
2374.0,0.40880000000000005
2376.0,0.40630000000000005
2378.0,0.40325000000000005
2380.0,0.40020000000000006
2382.0,0.3972
2384.0,0.3958
2386.0,0.395
2388.0,0.3948
2390.0,0.39535
2392.0,0.3967
2394.0,0.3981
2396.0,0.3986
2398.0,0.3987
2400.0,0.3993
2402.0,0.39990000000000003
2404.0,0.3995
2406.0,0.3986
2408.0,0.39785
2410.0,0.3969
2412.0,0.39535
2414.0,0.39409999999999995
2416.0,0.3922
2418.0,0.39030000000000004
2420.0,0.38799999999999996
2422.0,0.3858
2424.0,0.3835
2426.0,0.3809
2428.0,0.37829999999999997
2430.0,0.3753
2432.0,0.3725
2434.0,0.3693
2436.0,0.3668
2438.0,0.3643
2440.0,0.3626
2442.0,0.3603
2444.0,0.35850000000000004
2446.0,0.3574
2448.0,0.35619999999999996
2450.0,0.3552
2452.0,0.354
2454.0,0.3531
2456.0,0.3518
2458.0,0.35109999999999997
2460.0,0.3504
2462.0,0.35009999999999997
2464.0,0.34850000000000003
2466.0,0.3471
2468.0,0.3454
2470.0,0.34409999999999996
2472.0,0.3422
2474.0,0.34090000000000004
2476.0,0.3392
2478.0,0.337
2480.0,0.3346
2482.0,0.3326
2484.0,0.3312
2486.0,0.3298
2488.0,0.32880000000000004
2490.0,0.3286
2492.0,0.3286
2494.0,0.32789999999999997
2496.0,0.327
2498.0,0.3264
2500.0,0.32530000000000003
