wavelength,reflectance
1300.0,0.3779
1302.0,0.3811
1304.0,0.385
1306.0,0.3856
1308.0,0.38530000000000003
1310.0,0.3872
1312.0,0.3901
1314.0,0.3917
1316.0,0.3912
1318.0,0.3911
1320.0,0.3925
1322.0,0.39490000000000003
1324.0,0.39740000000000003
1326.0,0.39875
1328.0,0.39990000000000003
1330.0,0.4014
1332.0,0.40325000000000005
1334.0,0.405
1336.0,0.4068
1338.0,0.40880000000000005
1340.0,0.41
1342.0,0.41100000000000003
1344.0,0.4127
1346.0,0.41479999999999995
1348.0,0.4163
1350.0,0.4181
1352.0,0.4194
1354.0,0.42100000000000004
1356.0,0.4226
1358.0,0.4242
1360.0,0.4257
1362.0,0.42710000000000004
1364.0,0.42829999999999996
1366.0,0.42950000000000005
1368.0,0.4305
1370.0,0.43189999999999995
1372.0,0.4335
1374.0,0.4349
1376.0,0.436
1378.0,0.4372
1380.0,0.43829999999999997
1382.0,0.43939999999999996
1384.0,0.4403
1386.0,0.4411
1388.0,0.4416
1390.0,0.44189999999999996
1392.0,0.44179999999999997
1394.0,0.44189999999999996
1396.0,0.4424
1398.0,0.44299999999999995
1400.0,0.444
1402.0,0.445
1404.0,0.4454
1406.0,0.4451
1408.0,0.4432
1410.0,0.4399
1412.0,0.4366
1414.0,0.4347
1416.0,0.4355
1418.0,0.439
1420.0,0.4435
1422.0,0.4468
1424.0,0.44630000000000003
1426.0,0.439
1428.0,0.4233
1430.0,0.4004
1432.0,0.3768
1434.0,0.36200000000000004
1436.0,0.36310000000000003
1438.0,0.3799
1440.0,0.4052
1442.0,0.4291
1444.0,0.4457
1446.0,0.455
1448.0,0.45990000000000003
1450.0,0.4628
1452.0,0.46490000000000004
1454.0,0.46590000000000004
1456.0,0.4661
1458.0,0.4657
1460.0,0.465
1462.0,0.4636
1464.0,0.46149999999999997
1466.0,0.45890000000000003
1468.0,0.45549999999999996
1470.0,0.4509
1472.0,0.4445
1474.0,0.4355
1476.0,0.4242
1478.0,0.41259999999999997
1480.0,0.4045
1482.0,0.40415
1484.0,0.413
1486.0,0.42810000000000004
1488.0,0.4445
1490.0,0.4586
1492.0,0.4692
1494.0,0.47659999999999997
1496.0,0.48200000000000004
1498.0,0.486
1500.0,0.489
1502.0,0.4913
1504.0,0.49340000000000006
1506.0,0.4953
1508.0,0.4971
1510.0,0.4988
1512.0,0.5005
1514.0,0.5019
1516.0,0.5034000000000001
1518.0,0.5051
1520.0,0.5065
1522.0,0.5079
1524.0,0.5091
1526.0,0.5101
1528.0,0.5109
1530.0,0.5119
1532.0,0.513
1534.0,0.514
1536.0,0.515
1538.0,0.51595
1540.0,0.517
1542.0,0.5177499999999999
1544.0,0.51845
1546.0,0.519
1548.0,0.51955
1550.0,0.52025
1552.0,0.5213
1554.0,0.5219
1556.0,0.5225
1558.0,0.5233
1560.0,0.5238
1562.0,0.5244
1564.0,0.5249
1566.0,0.5254
1568.0,0.5265
1570.0,0.5272
1572.0,0.5276
1574.0,0.528
1576.0,0.52815
1578.0,0.5284
1580.0,0.5292
1582.0,0.5297
1584.0,0.5302
1586.0,0.5307999999999999
1588.0,0.5316
1590.0,0.5322
1592.0,0.5328
1594.0,0.5333
1596.0,0.53355
1598.0,0.5341
1600.0,0.5342
1602.0,0.5343
1604.0,0.5346
1606.0,0.5352
1608.0,0.5359
1610.0,0.5362
1612.0,0.5363
1614.0,0.5366
1616.0,0.5368999999999999
1618.0,0.53715
1620.0,0.5375
1622.0,0.5377000000000001
1624.0,0.5378000000000001
1626.0,0.5381
1628.0,0.5384
1630.0,0.53895
1632.0,0.5393
1634.0,0.5393
1636.0,0.5393
1638.0,0.5393
1640.0,0.5394
1642.0,0.5396
1644.0,0.5399
1646.0,0.5402
1648.0,0.5402
1650.0,0.5401
1652.0,0.5402
1654.0,0.5406
1656.0,0.5412
1658.0,0.5414
1660.0,0.5412
1662.0,0.5407500000000001
1664.0,0.5407
1666.0,0.5405
1668.0,0.5402
1670.0,0.5402
1672.0,0.5404
1674.0,0.541
1676.0,0.5411
1678.0,0.541
1680.0,0.5407500000000001
1682.0,0.541
1684.0,0.5411
1686.0,0.5414
1688.0,0.5414
1690.0,0.5413
1692.0,0.5414
1694.0,0.5413
1696.0,0.5416
1698.0,0.542
1700.0,0.5422
1702.0,0.5424
1704.0,0.5424
1706.0,0.5423
1708.0,0.5423
1710.0,0.5422
1712.0,0.5423
1714.0,0.5426
1716.0,0.542
1718.0,0.5417000000000001
1720.0,0.5417000000000001
1722.0,0.5418999999999999
1724.0,0.5423
1726.0,0.5423
1728.0,0.5425
1730.0,0.5428000000000001
1732.0,0.5428999999999999
1734.0,0.5432
1736.0,0.5432
1738.0,0.5428999999999999
1740.0,0.5428000000000001
1742.0,0.5428000000000001
1744.0,0.5432
1746.0,0.5435
1748.0,0.5437
1750.0,0.544
1752.0,0.5442
1754.0,0.5444
1756.0,0.5444
1758.0,0.5442
1760.0,0.5440999999999999
1762.0,0.5443
1764.0,0.5446
1766.0,0.5446
1768.0,0.5444
1770.0,0.5446
1772.0,0.5446
1774.0,0.5447
1776.0,0.5448
1778.0,0.54505
1780.0,0.5455
1782.0,0.5457500000000001
1784.0,0.5457500000000001
1786.0,0.5457500000000001
1788.0,0.5457
1790.0,0.5456
1792.0,0.5457500000000001
1794.0,0.5459
1796.0,0.5459
1798.0,0.5457
1800.0,0.5452
1802.0,0.5452
1804.0,0.5452
1806.0,0.5449
1808.0,0.5447
1810.0,0.5446
1812.0,0.5446
1814.0,0.5447
1816.0,0.5449
1818.0,0.5449
1820.0,0.5449
1822.0,0.5449
1824.0,0.5445
1826.0,0.5444
1828.0,0.5443
1830.0,0.544
1832.0,0.544
1834.0,0.5439
1836.0,0.5436
1838.0,0.5432
1840.0,0.5427000000000001
1842.0,0.5423
1844.0,0.5423
1846.0,0.5423
1848.0,0.5424
1850.0,0.5424
1852.0,0.5422
1854.0,0.5421
1856.0,0.5418999999999999
1858.0,0.5416
1860.0,0.5414
1862.0,0.5409
1864.0,0.5407
1866.0,0.5404
1868.0,0.54
1870.0,0.5396
1872.0,0.5388000000000001
1874.0,0.5379999999999999
1876.0,0.5376
1878.0,0.53715
1880.0,0.5365
1882.0,0.5357999999999999
1884.0,0.5351
1886.0,0.5351
1888.0,0.535
1890.0,0.5344
1892.0,0.5335
1894.0,0.5324
1896.0,0.5313
1898.0,0.5299499999999999
1900.0,0.5288
1902.0,0.52745
1904.0,0.5263
1906.0,0.5252
1908.0,0.5246
1910.0,0.5238499999999999
1912.0,0.5231
1914.0,0.5224
1916.0,0.5217
1918.0,0.5216
1920.0,0.5219
1922.0,0.5218
1924.0,0.5215
1926.0,0.5213
1928.0,0.5215
1930.0,0.5216
1932.0,0.5217
1934.0,0.5212
1936.0,0.521
1938.0,0.5207999999999999
1940.0,0.52025
1942.0,0.5202
1944.0,0.5196999999999999
1946.0,0.5194
1948.0,0.519
1950.0,0.5186
1952.0,0.5186
1954.0,0.5174
1956.0,0.5163
1958.0,0.5152
1960.0,0.51415
1962.0,0.5131
1964.0,0.5115999999999999
1966.0,0.51055
1968.0,0.5104
1970.0,0.511
1972.0,0.5118
1974.0,0.5127
1976.0,0.5136999999999999
1978.0,0.5153
1980.0,0.5173
1982.0,0.5191
1984.0,0.5202
1986.0,0.5211
1988.0,0.5217
1990.0,0.5222
1992.0,0.5226
1994.0,0.5228
1996.0,0.5231
1998.0,0.52315
2000.0,0.5235
2002.0,0.5242
2004.0,0.5247999999999999
2006.0,0.5252
2008.0,0.525
2010.0,0.525
2012.0,0.5247999999999999
2014.0,0.5245000000000001
2016.0,0.5245000000000001
2018.0,0.5247999999999999
2020.0,0.5252
2022.0,0.5256000000000001
2024.0,0.5256000000000001
2026.0,0.52565
2028.0,0.5257999999999999
2030.0,0.526
2032.0,0.526
2034.0,0.5261
2036.0,0.5264
2038.0,0.5268
2040.0,0.5274
2042.0,0.5278
2044.0,0.5279
2046.0,0.52745
2048.0,0.5268
2050.0,0.526
2052.0,0.526
2054.0,0.5263
2056.0,0.5261
2058.0,0.5256000000000001
2060.0,0.5247999999999999
2062.0,0.5244
2064.0,0.5242
2066.0,0.5238
2068.0,0.5229
2070.0,0.5219
2072.0,0.52135
2074.0,0.5212
2076.0,0.5212
2078.0,0.5212
2080.0,0.5207
2082.0,0.5207
2084.0,0.5207999999999999
2086.0,0.5205
2088.0,0.52
2090.0,0.5188
2092.0,0.5183
2094.0,0.5175
2096.0,0.5161
2098.0,0.5139
2100.0,0.5102
2102.0,0.5061
2104.0,0.5021
2106.0,0.4986
2108.0,0.4961
2110.0,0.4938
2112.0,0.4932
2114.0,0.4938
2116.0,0.495
2118.0,0.4974
2120.0,0.4991
2122.0,0.5004
2124.0,0.5
2126.0,0.4982
2128.0,0.496
2130.0,0.4932
2132.0,0.4907
2134.0,0.4894
2136.0,0.4892
2138.0,0.4893
2140.0,0.48840000000000006
2142.0,0.4866
2144.0,0.483
2146.0,0.478
2148.0,0.4722
2150.0,0.4668
2152.0,0.46299999999999997
2154.0,0.46259999999999996
2156.0,0.46509999999999996
2158.0,0.4702
2160.0,0.4758
2162.0,0.4805
2164.0,0.48450000000000004
2166.0,0.4875
2168.0,0.48950000000000005
2170.0,0.49
2172.0,0.48960000000000004
2174.0,0.4891
2176.0,0.4879
2178.0,0.48700000000000004
2180.0,0.48560000000000003
2182.0,0.48450000000000004
2184.0,0.48350000000000004
2186.0,0.48119999999999996
2188.0,0.47740000000000005
2190.0,0.4718
2192.0,0.46649999999999997
2194.0,0.46399999999999997
2196.0,0.4642
2198.0,0.46590000000000004
2200.0,0.4678
2202.0,0.469
2204.0,0.4697
2206.0,0.4693
2208.0,0.46799999999999997
2210.0,0.46619999999999995
2212.0,0.4648
2214.0,0.4628
2216.0,0.4606
2218.0,0.45649999999999996
2220.0,0.4506
2222.0,0.4436
2224.0,0.436
2226.0,0.42869999999999997
2228.0,0.4204
2230.0,0.41090000000000004
2232.0,0.4008
2234.0,0.391
2236.0,0.38189999999999996
2238.0,0.37325
2240.0,0.36579999999999996
2242.0,0.3583
2244.0,0.3504
2246.0,0.34380000000000005
2248.0,0.3414
2250.0,0.3461
2252.0,0.3582
2254.0,0.37325
2256.0,0.3864
2258.0,0.3946
2260.0,0.39770000000000005
2262.0,0.39799999999999996
2264.0,0.39659999999999995
2266.0,0.3942
2268.0,0.3908
2270.0,0.3864
2272.0,0.38115000000000004
2274.0,0.37439999999999996
2276.0,0.36579999999999996
2278.0,0.3555
2280.0,0.3436
2282.0,0.3309
2284.0,0.3177
2286.0,0.3044
2288.0,0.29045000000000004
2290.0,0.276
2292.0,0.261
2294.0,0.2463
2296.0,0.23170000000000002
2298.0,0.2168
2300.0,0.2043
2302.0,0.1971
2304.0,0.1955
2306.0,0.1999
2308.0,0.2078
2310.0,0.21760000000000002
2312.0,0.22870000000000001
2314.0,0.2397
2316.0,0.2503
2318.0,0.2591
2320.0,0.2664
2322.0,0.2727
2324.0,0.2766
2326.0,0.278
2328.0,0.2762
2330.0,0.27285
2332.0,0.26765
2334.0,0.26170000000000004
2336.0,0.2552
2338.0,0.249
2340.0,0.244
2342.0,0.2398
2344.0,0.2368
2346.0,0.23420000000000002
2348.0,0.2322
2350.0,0.2309
2352.0,0.22940000000000002
2354.0,0.2293
2356.0,0.2302
2358.0,0.2332
2360.0,0.23850000000000002
2362.0,0.2463
2364.0,0.2568
2366.0,0.268
2368.0,0.2791
2370.0,0.2874
2372.0,0.29315
2374.0,0.2985
2376.0,0.3066
2378.0,0.3181
2380.0,0.33159999999999995
2382.0,0.3436
2384.0,0.3504
2386.0,0.3508
2388.0,0.3471
2390.0,0.3421
2392.0,0.34009999999999996
2394.0,0.3425
2396.0,0.3493
2398.0,0.3578
2400.0,0.3671
2402.0,0.37579999999999997
2404.0,0.3832
2406.0,0.38780000000000003
2408.0,0.389
2410.0,0.3898
2412.0,0.39030000000000004
2414.0,0.39039999999999997
2416.0,0.389
2418.0,0.3881
2420.0,0.38789999999999997
2422.0,0.3883
2424.0,0.38670000000000004
2426.0,0.3837
2428.0,0.38
2430.0,0.377
2432.0,0.3747
2434.0,0.3705
2436.0,0.3635
2438.0,0.35590000000000005
2440.0,0.3488
2442.0,0.3423
2444.0,0.33625
2446.0,0.3319
2448.0,0.32899999999999996
2450.0,0.3286
2452.0,0.33104999999999996
2454.0,0.33659999999999995
2456.0,0.3428
2458.0,0.3483
2460.0,0.3517
2462.0,0.35359999999999997
2464.0,0.35509999999999997
2466.0,0.358
2468.0,0.3628
2470.0,0.3677
2472.0,0.3718
2474.0,0.3746
2476.0,0.3775
2478.0,0.3799
2480.0,0.3818
2482.0,0.38189999999999996
2484.0,0.3815
2486.0,0.3791
2488.0,0.37520000000000003
2490.0,0.3699
2492.0,0.36534999999999995
2494.0,0.36
2496.0,0.3542
2498.0,0.3489
2500.0,0.3432
