wavelength,reflectance
1300.0,0.8183
1302.0,0.8187000000000001
1304.0,0.8159000000000001
1306.0,0.8129000000000001
1308.0,0.8123
1310.0,0.8122
1312.0,0.8116
1314.0,0.8116
1316.0,0.8114
1318.0,0.8101
1320.0,0.8081999999999999
1322.0,0.8070999999999999
1324.0,0.8046
1326.0,0.8027
1328.0,0.8018000000000001
1330.0,0.8005
1332.0,0.8
1334.0,0.7990999999999999
1336.0,0.79755
1338.0,0.7947
1340.0,0.7928000000000001
1342.0,0.7906
1344.0,0.7878499999999999
1346.0,0.7851
1348.0,0.7807
1350.0,0.7756000000000001
1352.0,0.7706000000000001
1354.0,0.765
1356.0,0.7603
1358.0,0.7568
1360.0,0.7535
1362.0,0.7506
1364.0,0.7472
1366.0,0.7432
1368.0,0.7386
1370.0,0.7325499999999999
1372.0,0.7245
1374.0,0.7145999999999999
1376.0,0.7031000000000001
1378.0,0.6903
1380.0,0.6776000000000001
1382.0,0.6651
1384.0,0.6537999999999999
1386.0,0.6448
1388.0,0.638
1390.0,0.6334000000000001
1392.0,0.6317
1394.0,0.6321
1396.0,0.6336999999999999
1398.0,0.636
1400.0,0.638
1402.0,0.6388
1404.0,0.6372
1406.0,0.6321
1408.0,0.6238
1410.0,0.6141
1412.0,0.6067
1414.0,0.60575
1416.0,0.6133
1418.0,0.6275999999999999
1420.0,0.6455
1422.0,0.6629999999999999
1424.0,0.6777
1426.0,0.6897
1428.0,0.6990000000000001
1430.0,0.7056
1432.0,0.711
1434.0,0.7156
1436.0,0.7199
1438.0,0.7237
1440.0,0.7271500000000001
1442.0,0.7302
1444.0,0.733
1446.0,0.7358
1448.0,0.738
1450.0,0.74
1452.0,0.7419
1454.0,0.7440000000000001
1456.0,0.7458499999999999
1458.0,0.7473000000000001
1460.0,0.74835
1462.0,0.7494
1464.0,0.7506999999999999
1466.0,0.7517
1468.0,0.753
1470.0,0.754
1472.0,0.7553
1474.0,0.7565999999999999
1476.0,0.7585
1478.0,0.7605
1480.0,0.7631999999999999
1482.0,0.7656999999999999
1484.0,0.76775
1486.0,0.7692
1488.0,0.7707999999999999
1490.0,0.7722
1492.0,0.7735
1494.0,0.7748999999999999
1496.0,0.7763
1498.0,0.7781
1500.0,0.7798
1502.0,0.78105
1504.0,0.7818999999999999
1506.0,0.7831999999999999
1508.0,0.7846
1510.0,0.7865000000000001
1512.0,0.7876000000000001
1514.0,0.7885
1516.0,0.7889
1518.0,0.7898000000000001
1520.0,0.7906
1522.0,0.7917000000000001
1524.0,0.7928000000000001
1526.0,0.7938
1528.0,0.7947
1530.0,0.7957
1532.0,0.7966
1534.0,0.7975
1536.0,0.7986
1538.0,0.79935
1540.0,0.8001999999999999
1542.0,0.8009000000000001
1544.0,0.8016
1546.0,0.8019
1548.0,0.8024
1550.0,0.8031999999999999
1552.0,0.804
1554.0,0.8047
1556.0,0.8051999999999999
1558.0,0.8057
1560.0,0.8067
1562.0,0.8076000000000001
1564.0,0.8081999999999999
1566.0,0.8083499999999999
1568.0,0.8088
1570.0,0.8093
1572.0,0.8101
1574.0,0.8108
1576.0,0.8114
1578.0,0.8117
1580.0,0.8119
1582.0,0.8122
1584.0,0.8126000000000001
1586.0,0.813
1588.0,0.8134999999999999
1590.0,0.8139
1592.0,0.8144499999999999
1594.0,0.8148000000000001
1596.0,0.8151
1598.0,0.81515
1600.0,0.8158
1602.0,0.8161
1604.0,0.8162
1606.0,0.8164
1608.0,0.8169
1610.0,0.8175
1612.0,0.8178
1614.0,0.8177
1616.0,0.8175
1618.0,0.8177
1620.0,0.8181999999999999
1622.0,0.8189
1624.0,0.8192
1626.0,0.8192
1628.0,0.8193
1630.0,0.8194
1632.0,0.8197
1634.0,0.8199
1636.0,0.8199
1638.0,0.82
1640.0,0.8201
1642.0,0.8201999999999999
1644.0,0.8203
1646.0,0.8206
1648.0,0.8208
1650.0,0.8205
1652.0,0.8204
1654.0,0.8203
1656.0,0.8206
1658.0,0.8208
1660.0,0.8205
1662.0,0.8201
1664.0,0.8201
1666.0,0.82
1668.0,0.82
1670.0,0.8201
1672.0,0.82
1674.0,0.8201
1676.0,0.8198000000000001
1678.0,0.8195
1680.0,0.8190999999999999
1682.0,0.8186
1684.0,0.8181
1686.0,0.8176000000000001
1688.0,0.8173999999999999
1690.0,0.8175
1692.0,0.8175
1694.0,0.8173
1696.0,0.8168000000000001
1698.0,0.8168000000000001
1700.0,0.8165
1702.0,0.81625
1704.0,0.8159000000000001
1706.0,0.815
1708.0,0.8148000000000001
1710.0,0.8144499999999999
1712.0,0.8144
1714.0,0.8140999999999999
1716.0,0.8138
1718.0,0.8131
1720.0,0.8125
1722.0,0.812
1724.0,0.8114
1726.0,0.8108
1728.0,0.8101999999999999
1730.0,0.8096
1732.0,0.80905
1734.0,0.8081999999999999
1736.0,0.8068000000000001
1738.0,0.8057
1740.0,0.805
1742.0,0.8045
1744.0,0.8042
1746.0,0.8035
1748.0,0.8025
1750.0,0.8012999999999999
1752.0,0.8001999999999999
1754.0,0.7990999999999999
1756.0,0.7981
1758.0,0.797
1760.0,0.7957
1762.0,0.7945
1764.0,0.7936
1766.0,0.7925
1768.0,0.7917000000000001
1770.0,0.7902
1772.0,0.7889
1774.0,0.7879999999999999
1776.0,0.7868999999999999
1778.0,0.7856000000000001
1780.0,0.7839
1782.0,0.7825
1784.0,0.7817000000000001
1786.0,0.7807
1788.0,0.77925
1790.0,0.7777
1792.0,0.7767000000000001
1794.0,0.7764
1796.0,0.7757999999999999
1798.0,0.7753
1800.0,0.7742
1802.0,0.7734000000000001
1804.0,0.773
1806.0,0.7726000000000001
1808.0,0.7722
1810.0,0.772
1812.0,0.7713500000000001
1814.0,0.7709
1816.0,0.7705
1818.0,0.7698
1820.0,0.7693000000000001
1822.0,0.7687
1824.0,0.7683
1826.0,0.7687
1828.0,0.769
1830.0,0.7692
1832.0,0.7686
1834.0,0.7676999999999999
1836.0,0.767
1838.0,0.7658
1840.0,0.7643000000000001
1842.0,0.7629
1844.0,0.762
1846.0,0.7623000000000001
1848.0,0.762
1850.0,0.7619
1852.0,0.76165
1854.0,0.7613
1856.0,0.7609999999999999
1858.0,0.7598
1860.0,0.7583
1862.0,0.7551000000000001
1864.0,0.7515000000000001
1866.0,0.74835
1868.0,0.7445
1870.0,0.7397
1872.0,0.7329000000000001
1874.0,0.725
1876.0,0.71745
1878.0,0.7101999999999999
1880.0,0.7027
1882.0,0.6955
1884.0,0.688
1886.0,0.68
1888.0,0.6718000000000001
1890.0,0.6627
1892.0,0.6531
1894.0,0.6429
1896.0,0.6321
1898.0,0.62085
1900.0,0.6098
1902.0,0.5982
1904.0,0.5871999999999999
1906.0,0.5777
1908.0,0.5703
1910.0,0.5647
1912.0,0.5607
1914.0,0.5585
1916.0,0.5583
1918.0,0.5599000000000001
1920.0,0.5625
1922.0,0.5656
1924.0,0.5693
1926.0,0.5735
1928.0,0.5775
1930.0,0.58095
1932.0,0.5835
1934.0,0.5861
1936.0,0.5888
1938.0,0.5916
1940.0,0.5935
1942.0,0.5948
1944.0,0.5959
1946.0,0.5974
1948.0,0.5993999999999999
1950.0,0.6008
1952.0,0.6021500000000001
1954.0,0.6034
1956.0,0.605
1958.0,0.6065
1960.0,0.6072
1962.0,0.608
1964.0,0.609
1966.0,0.6109
1968.0,0.6128
1970.0,0.6141
1972.0,0.61545
1974.0,0.6172
1976.0,0.6188
1978.0,0.6207
1980.0,0.6223
1982.0,0.6238
1984.0,0.62585
1986.0,0.6275999999999999
1988.0,0.6294
1990.0,0.6311
1992.0,0.6329
1994.0,0.6347
1996.0,0.6369
1998.0,0.6381
2000.0,0.6396000000000001
2002.0,0.6416
2004.0,0.6436
2006.0,0.6463500000000001
2008.0,0.6478
2010.0,0.649
2012.0,0.6503
2014.0,0.6523
2016.0,0.6544
2018.0,0.6557
2020.0,0.6567000000000001
2022.0,0.6581999999999999
2024.0,0.66
2026.0,0.6616
2028.0,0.6626000000000001
2030.0,0.6631999999999999
2032.0,0.6636
2034.0,0.665
2036.0,0.6662
2038.0,0.6666
2040.0,0.6668000000000001
2042.0,0.6666
2044.0,0.6678000000000001
2046.0,0.6684
2048.0,0.6681
2050.0,0.6679999999999999
2052.0,0.6675
2054.0,0.6678000000000001
2056.0,0.6679999999999999
2058.0,0.6679999999999999
2060.0,0.6675
2062.0,0.6666
2064.0,0.6657500000000001
2066.0,0.665
2068.0,0.6646500000000001
2070.0,0.6642
2072.0,0.6637000000000001
2074.0,0.6627
2076.0,0.6617000000000001
2078.0,0.6609
2080.0,0.6598
2082.0,0.6581999999999999
2084.0,0.6566
2086.0,0.6557999999999999
2088.0,0.6551
2090.0,0.6542
2092.0,0.6529
2094.0,0.6522
2096.0,0.6515000000000001
2098.0,0.6504000000000001
2100.0,0.6487999999999999
2102.0,0.6465000000000001
2104.0,0.6445000000000001
2106.0,0.6422
2108.0,0.6397999999999999
2110.0,0.6372
2112.0,0.6346
2114.0,0.63305
2116.0,0.6319
2118.0,0.6311
2120.0,0.6297999999999999
2122.0,0.6283
2124.0,0.6269
2126.0,0.6251
2128.0,0.623
2130.0,0.6204999999999999
2132.0,0.6171
2134.0,0.6139
2136.0,0.6098
2138.0,0.6053999999999999
2140.0,0.5996
2142.0,0.5926
2144.0,0.585
2146.0,0.5765
2148.0,0.5672
2150.0,0.5576
2152.0,0.5483
2154.0,0.5405
2156.0,0.5329
2158.0,0.52565
2160.0,0.5196999999999999
2162.0,0.5157
2164.0,0.5134000000000001
2166.0,0.5113
2168.0,0.5095000000000001
2170.0,0.5091
2172.0,0.5097999999999999
2174.0,0.5109
2176.0,0.5113
2178.0,0.5103
2180.0,0.5094
2182.0,0.5078
2184.0,0.5053
2186.0,0.5018
2188.0,0.4972
2190.0,0.4919
2192.0,0.4852
2194.0,0.4783
2196.0,0.4711
2198.0,0.4635
2200.0,0.45399999999999996
2202.0,0.44270000000000004
2204.0,0.42979999999999996
2206.0,0.4178
2208.0,0.4104
2210.0,0.4106
2212.0,0.4189
2214.0,0.43420000000000003
2216.0,0.4539
2218.0,0.475
2220.0,0.49329999999999996
2222.0,0.5082
2224.0,0.5184000000000001
2226.0,0.5257999999999999
2228.0,0.5318999999999999
2230.0,0.5366
2232.0,0.53895
2234.0,0.54
2236.0,0.5406
2238.0,0.5412
2240.0,0.5418
2242.0,0.5424
2244.0,0.5443
2246.0,0.5467
2248.0,0.5481
2250.0,0.5489999999999999
2252.0,0.5501
2254.0,0.551
2256.0,0.5516
2258.0,0.5518
2260.0,0.55115
2262.0,0.5509000000000001
2264.0,0.5505
2266.0,0.5501
2268.0,0.5498
2270.0,0.54865
2272.0,0.5473
2274.0,0.5454
2276.0,0.5435
2278.0,0.5427000000000001
2280.0,0.5406
2282.0,0.5387
2284.0,0.5363
2286.0,0.5344
2288.0,0.5329
2290.0,0.53105
2292.0,0.5288
2294.0,0.5265
2296.0,0.524
2298.0,0.5209
2300.0,0.5176
2302.0,0.5152
2304.0,0.5128
2306.0,0.5091
2308.0,0.5049
2310.0,0.50195
2312.0,0.5006
2314.0,0.4988
2316.0,0.4976
2318.0,0.4964
2320.0,0.49520000000000003
2322.0,0.4939
2324.0,0.4927
2326.0,0.4917
2328.0,0.4911
2330.0,0.4905
2332.0,0.4903
2334.0,0.48969999999999997
2336.0,0.4885
2338.0,0.4875
2340.0,0.48560000000000003
2342.0,0.48310000000000003
2344.0,0.48100000000000004
2346.0,0.4779
2348.0,0.475
2350.0,0.47229999999999994
2352.0,0.4702
2354.0,0.46840000000000004
2356.0,0.4661
2358.0,0.4648
2360.0,0.4647
2362.0,0.46549999999999997
2364.0,0.46520000000000006
2366.0,0.4643
2368.0,0.46240000000000003
2370.0,0.4603
2372.0,0.4576
2374.0,0.4542
2376.0,0.4507
2378.0,0.4475
2380.0,0.44439999999999996
2382.0,0.44189999999999996
2384.0,0.4403
2386.0,0.4399
2388.0,0.44
2390.0,0.4401
2392.0,0.4413
2394.0,0.4421
2396.0,0.4422
2398.0,0.4426
2400.0,0.44310000000000005
2402.0,0.4439
2404.0,0.4439
2406.0,0.4436
2408.0,0.4428
2410.0,0.44189999999999996
2412.0,0.4414
2414.0,0.4396
2416.0,0.43799999999999994
2418.0,0.4357
2420.0,0.4337
2422.0,0.4322
2424.0,0.4296
2426.0,0.42619999999999997
2428.0,0.424
2430.0,0.4219
2432.0,0.41960000000000003
2434.0,0.4165
2436.0,0.414
2438.0,0.4122
2440.0,0.40950000000000003
2442.0,0.4071
2444.0,0.4053
2446.0,0.4039
2448.0,0.4025
2450.0,0.4012
2452.0,0.40020000000000006
2454.0,0.3994
2456.0,0.3978
2458.0,0.39659999999999995
2460.0,0.395
2462.0,0.39390000000000003
2464.0,0.3922
2466.0,0.39130000000000004
2468.0,0.39020000000000005
2470.0,0.3886
2472.0,0.3864
2474.0,0.38475000000000004
2476.0,0.3834
2478.0,0.3824
2480.0,0.38020000000000004
2482.0,0.3774
2484.0,0.3747
2486.0,0.3732
2488.0,0.3721
2490.0,0.3709
2492.0,0.3693
2494.0,0.3686
2496.0,0.3677
2498.0,0.3669
2500.0,0.3652
